#    s        x        y     Ue/Vinf    Dstar     Theta      Cf       H
   0.00000  1.00000  0.00189  0.86269  0.014706  0.006219  0.000384     2.365
   0.00794  0.99232  0.00388  0.86908  0.013722  0.006021  0.000460     2.279
   0.02095  0.97971  0.00711  0.88176  0.012122  0.005660  0.000614     2.142
   0.03535  0.96574  0.01063  0.89721  0.010638  0.005267  0.000800     2.020
   0.05111  0.95044  0.01441  0.91515  0.009307  0.004861  0.001018     1.915
   0.06812  0.93391  0.01842  0.93484  0.008160  0.004466  0.001259     1.827
   0.08621  0.91632  0.02260  0.95533  0.007204  0.004100  0.001512     1.757
   0.10516  0.89786  0.02690  0.97584  0.006418  0.003771  0.001767     1.702
   0.12477  0.87874  0.03124  0.99576  0.005776  0.003483  0.002016     1.658
   0.14486  0.85913  0.03559  1.01475  0.005249  0.003231  0.002254     1.625
   0.16527  0.83918  0.03992  1.03275  0.004810  0.003010  0.002481     1.598
   0.18591  0.81898  0.04418  1.04974  0.004439  0.002815  0.002696     1.577
   0.20670  0.79863  0.04838  1.06586  0.004120  0.002640  0.002900     1.560
   0.22757  0.77816  0.05248  1.08120  0.003841  0.002483  0.003097     1.547
   0.24850  0.75762  0.05649  1.09592  0.003593  0.002339  0.003287     1.536
   0.26944  0.73704  0.06040  1.11010  0.003369  0.002207  0.003472     1.526
   0.29040  0.71643  0.06420  1.12388  0.003164  0.002084  0.003655     1.518
   0.31134  0.69582  0.06788  1.13729  0.002976  0.001969  0.003837     1.511
   0.33225  0.67521  0.07145  1.15047  0.002800  0.001860  0.004021     1.505
   0.35313  0.65462  0.07490  1.16340  0.002636  0.001757  0.004206     1.500
   0.37396  0.63406  0.07822  1.17622  0.002481  0.001659  0.004397     1.495
   0.39473  0.61354  0.08142  1.18894  0.002333  0.001565  0.004593     1.490
   0.41543  0.59306  0.08447  1.20156  0.002192  0.001475  0.004797     1.486
   0.43606  0.57264  0.08739  1.21422  0.002056  0.001388  0.005013     1.481
   0.45661  0.55228  0.09016  1.22677  0.001927  0.001305  0.005240     1.477
   0.47706  0.53200  0.09277  1.23942  0.001801  0.001224  0.005483     1.472
   0.49740  0.51180  0.09523  1.25203  0.001680  0.001145  0.005743     1.467
   0.51763  0.49171  0.09752  1.26470  0.001562  0.001069  0.006025     1.461
   0.53773  0.47172  0.09965  1.27738  0.001448  0.000995  0.006330     1.455
   0.55769  0.45185  0.10159  1.29000  0.001338  0.000923  0.006657     1.449
   0.57750  0.43212  0.10334  1.30264  0.001232  0.000853  0.007006     1.443
   0.59714  0.41254  0.10490  1.31507  0.001130  0.000785  0.007359     1.440
   0.61659  0.39314  0.10625  1.32722  0.001037  0.000720  0.007678     1.440
   0.63584  0.37392  0.10740  1.33879  0.000955  0.000657  0.007853     1.454
   0.65486  0.35492  0.10832  1.34951  0.000898  0.000599  0.007606     1.500
   0.67362  0.33618  0.10902  1.35925  0.000899  0.000549  0.006309     1.639
   0.69209  0.31771  0.10949  1.37334  0.001036  0.000505  0.003332     2.054
   0.71023  0.29958  0.10972  1.42058  0.001445  0.000423  0.000335     3.413
   0.72798  0.28183  0.10970  1.44680  0.001650  0.000380 -0.000232     4.339
   0.74529  0.26452  0.10945  1.45748  0.001639  0.000364 -0.000286     4.506
   0.76210  0.24772  0.10896  1.46871  0.001535  0.000347 -0.000281     4.420
   0.77832  0.23151  0.10824  1.48100  0.001378  0.000330 -0.000208     4.172
   0.79389  0.21597  0.10730  1.49478  0.001196  0.000313  0.000009     3.821
   0.80872  0.20118  0.10616  1.51140  0.000978  0.000293  0.000644     3.336
   0.82277  0.18720  0.10478  1.53100  0.000797  0.000271  0.001696     2.938
   0.83615  0.17393  0.10307  1.54586  0.000701  0.000253  0.002457     2.771
   0.84892  0.16132  0.10106  1.55637  0.000636  0.000238  0.003077     2.675
   0.86112  0.14933  0.09879  1.56325  0.000587  0.000225  0.003615     2.611
   0.87278  0.13795  0.09629  1.56685  0.000548  0.000213  0.004067     2.569
   0.88388  0.12717  0.09360  1.56808  0.000514  0.000203  0.004498     2.536
   0.89445  0.11700  0.09075  1.56694  0.000486  0.000193  0.004884     2.512
   0.90448  0.10742  0.08777  1.56394  0.000460  0.000185  0.005251     2.493
   0.91396  0.09845  0.08469  1.55928  0.000437  0.000177  0.005609     2.476
   0.92292  0.09006  0.08155  1.55307  0.000416  0.000169  0.005951     2.463
   0.93137  0.08223  0.07836  1.54544  0.000397  0.000162  0.006271     2.453
   0.93933  0.07495  0.07516  1.53677  0.000379  0.000155  0.006613     2.442
   0.94682  0.06818  0.07196  1.52677  0.000362  0.000149  0.006926     2.435
   0.95386  0.06190  0.06877  1.51585  0.000346  0.000142  0.007263     2.426
   0.96049  0.05608  0.06561  1.50376  0.000331  0.000137  0.007591     2.419
   0.96673  0.05068  0.06248  1.49059  0.000316  0.000131  0.007910     2.413
   0.97261  0.04568  0.05939  1.47648  0.000303  0.000126  0.008239     2.408
   0.97815  0.04105  0.05633  1.46138  0.000289  0.000120  0.008608     2.400
   0.98339  0.03676  0.05332  1.44486  0.000276  0.000115  0.008951     2.394
   0.98835  0.03278  0.05035  1.42715  0.000264  0.000111  0.009318     2.387
   0.99306  0.02911  0.04742  1.40797  0.000252  0.000106  0.009680     2.381
   0.99752  0.02571  0.04453  1.38735  0.000240  0.000101  0.010108     2.372
   1.00177  0.02256  0.04168  1.36452  0.000229  0.000097  0.010476     2.366
   1.00581  0.01966  0.03886  1.33983  0.000219  0.000093  0.010837     2.361
   1.00967  0.01699  0.03607  1.31316  0.000207  0.000088  0.011348     2.347
   1.01337  0.01454  0.03331  1.28290  0.000198  0.000085  0.011639     2.344
   1.01690  0.01229  0.03057  1.25051  0.000188  0.000081  0.012057     2.334
   1.02030  0.01025  0.02786  1.21440  0.000179  0.000077  0.012475     2.323
   1.02357  0.00840  0.02517  1.17390  0.000170  0.000073  0.012784     2.314
   1.02671  0.00675  0.02249  1.12927  0.000162  0.000070  0.012956     2.309
   1.02974  0.00528  0.01984  1.08042  0.000154  0.000067  0.013250     2.295
   1.03267  0.00399  0.01721  1.02547  0.000147  0.000064  0.013257     2.288
   1.03551  0.00288  0.01460  0.96497  0.000139  0.000061  0.013303     2.273
   1.03826  0.00196  0.01200  0.89805  0.000134  0.000059  0.012842     2.273
   1.04093  0.00122  0.00944  0.82631  0.000128  0.000057  0.012584     2.255
   1.04352  0.00066  0.00691  0.74770  0.000125  0.000055  0.011708     2.256
   1.04605  0.00027  0.00441  0.66520  0.000120  0.000054  0.010916     2.244
   1.04852  0.00005  0.00195  0.57737  0.000118  0.000052  0.009701     2.242
   1.05092  0.00000 -0.00045  0.48684  0.000115  0.000052  0.008411     2.235
   1.05333  0.00012 -0.00286  0.39186  0.000114  0.000051  0.006836     2.240
   1.05579  0.00041 -0.00530  0.29081  0.000111  0.000050  0.005239     2.227
   1.05830  0.00090 -0.00775  0.18448  0.000112  0.000050  0.003290     2.230
   1.06085  0.00161 -0.01021  0.07710  0.000112  0.000050  0.001378     2.230
   1.06346  0.00253 -0.01265 -0.03291  0.000112  0.000050  0.000588     2.230
   1.06613  0.00368 -0.01507 -0.13904  0.000117  0.000052  0.002364     2.235
   1.06888  0.00506 -0.01743 -0.24078  0.000120  0.000054  0.004014     2.232
   1.07169  0.00667 -0.01974 -0.33568  0.000126  0.000056  0.005246     2.248
   1.07459  0.00851 -0.02199 -0.42176  0.000132  0.000059  0.006256     2.250
   1.07759  0.01056 -0.02417 -0.49937  0.000140  0.000062  0.006912     2.262
   1.08069  0.01283 -0.02628 -0.56778  0.000150  0.000066  0.007305     2.272
   1.08390  0.01532 -0.02832 -0.62809  0.000159  0.000070  0.007515     2.281
   1.08724  0.01802 -0.03028 -0.67993  0.000171  0.000075  0.007454     2.297
   1.09073  0.02094 -0.03219 -0.72601  0.000182  0.000079  0.007464     2.300
   1.09438  0.02409 -0.03403 -0.76470  0.000197  0.000085  0.007107     2.324
   1.09820  0.02747 -0.03582 -0.79912  0.000210  0.000090  0.006976     2.325
   1.10222  0.03109 -0.03756 -0.82836  0.000226  0.000096  0.006590     2.345
   1.10646  0.03498 -0.03925 -0.85374  0.000241  0.000103  0.006291     2.355
   1.11095  0.03916 -0.04090 -0.87578  0.000258  0.000109  0.005959     2.367
   1.11572  0.04364 -0.04251 -0.89490  0.000276  0.000116  0.005626     2.379
   1.12080  0.04847 -0.04410 -0.91136  0.000296  0.000124  0.005284     2.393
   1.12623  0.05367 -0.04565 -0.92565  0.000316  0.000131  0.004966     2.404
   1.13206  0.05930 -0.04718 -0.93805  0.000337  0.000139  0.004656     2.416
   1.13835  0.06540 -0.04869 -0.94876  0.000360  0.000148  0.004355     2.429
   1.14515  0.07204 -0.05019 -0.95815  0.000384  0.000157  0.004082     2.439
   1.15255  0.07929 -0.05167 -0.96599  0.000410  0.000167  0.003792     2.454
   1.16063  0.08723 -0.05314 -0.97302  0.000437  0.000177  0.003559     2.462
   1.16947  0.09595 -0.05461 -0.97896  0.000466  0.000188  0.003315     2.474
   1.17918  0.10556 -0.05607 -0.98424  0.000496  0.000200  0.003104     2.482
   1.18988  0.11615 -0.05753 -0.98892  0.000528  0.000212  0.002909     2.489
   1.20165  0.12783 -0.05898 -0.99327  0.000560  0.000225  0.002740     2.493
   1.21458  0.14068 -0.06044 -0.99768  0.000592  0.000237  0.002608     2.492
   1.22870  0.15472 -0.06191 -1.00235  0.000623  0.000250  0.002503     2.487
   1.24397  0.16992 -0.06337 -1.00829  0.000648  0.000262  0.002467     2.469
   1.26022  0.18610 -0.06485 -1.01602  0.000666  0.000273  0.002486     2.442
   1.27716  0.20298 -0.06632 -1.03138  0.000650  0.000276  0.002827     2.353
   1.29449  0.22026 -0.06761 -1.04473  0.000666  0.000283  0.002803     2.350
   1.31217  0.23791 -0.06864 -1.05284  0.000707  0.000295  0.002539     2.398
   1.33018  0.25590 -0.06943 -1.05804  0.000751  0.000308  0.002301     2.440
   1.34851  0.27423 -0.06997 -1.06142  0.000795  0.000321  0.002109     2.473
   1.36716  0.29287 -0.07028 -1.06334  0.000839  0.000335  0.001941     2.502
   1.38609  0.31181 -0.07037 -1.06421  0.000884  0.000350  0.001796     2.526
   1.40530  0.33101 -0.07025 -1.06419  0.000929  0.000364  0.001664     2.550
   1.42476  0.35047 -0.06992 -1.06352  0.000975  0.000379  0.001547     2.571
   1.44445  0.37016 -0.06941 -1.06220  0.001023  0.000395  0.001437     2.593
   1.46436  0.39006 -0.06871 -1.06043  0.001072  0.000410  0.001337     2.614
   1.48448  0.41015 -0.06783 -1.05827  0.001121  0.000425  0.001244     2.635
   1.50478  0.43043 -0.06680 -1.05570  0.001173  0.000441  0.001155     2.658
   1.52526  0.45087 -0.06561 -1.05293  0.001224  0.000457  0.001076     2.679
   1.54590  0.47147 -0.06428 -1.04992  0.001277  0.000473  0.001001     2.701
   1.56668  0.49220 -0.06281 -1.04667  0.001333  0.000489  0.000928     2.725
   1.58760  0.51305 -0.06121 -1.04329  0.001389  0.000505  0.000862     2.749
   1.60864  0.53402 -0.05949 -1.03981  0.001445  0.000521  0.000801     2.772
   1.62979  0.55509 -0.05766 -1.03616  0.001506  0.000538  0.000739     2.799
   1.65104  0.57626 -0.05573 -1.03244  0.001567  0.000554  0.000683     2.826
   1.67238  0.59750 -0.05370 -1.02865  0.001630  0.000571  0.000629     2.854
   1.69380  0.61881 -0.05157 -1.02477  0.001696  0.000588  0.000576     2.886
   1.71528  0.64018 -0.04936 -1.02082  0.001766  0.000605  0.000524     2.920
   1.73683  0.66160 -0.04706 -1.01681  0.001839  0.000622  0.000473     2.958
   1.75841  0.68306 -0.04469 -1.01272  0.001919  0.000639  0.000422     3.002
   1.78003  0.70454 -0.04225 -1.00856  0.002005  0.000657  0.000371     3.052
   1.80167  0.72604 -0.03974 -1.00436  0.002099  0.000675  0.000318     3.111
   1.82331  0.74752 -0.03716 -1.00010  0.002205  0.000693  0.000264     3.183
   1.84493  0.76898 -0.03452 -0.99585  0.002324  0.000711  0.000209     3.269
   1.86650  0.79037 -0.03183 -0.99167  0.002458  0.000729  0.000153     3.372
   1.88797  0.81167 -0.02909 -0.98762  0.002609  0.000747  0.000100     3.495
   1.90928  0.83280 -0.02630 -0.98382  0.002774  0.000764  0.000052     3.632
   1.93036  0.85369 -0.02349 -0.98032  0.002945  0.000780  0.000012     3.777
   1.95108  0.87422 -0.02066 -0.97713  0.003105  0.000795 -0.000016     3.908
   1.97129  0.89423 -0.01785 -0.97423  0.003223  0.000809 -0.000029     3.986
   1.99077  0.91351 -0.01508 -0.97159  0.003242  0.000822 -0.000022     3.946
   2.00931  0.93185 -0.01239 -0.95312  0.003016  0.000916  0.000145     3.294
   2.02667  0.94903 -0.00982 -0.92526  0.002674  0.001062  0.000602     2.517
   2.04267  0.96485 -0.00741 -0.90549  0.002470  0.001175  0.001141     2.103
   2.05722  0.97923 -0.00518 -0.88930  0.002426  0.001275  0.001505     1.903
   2.07031  0.99215 -0.00314 -0.87053  0.002555  0.001398  0.001597     1.828
   2.07826  1.00000 -0.00189 -0.86269  0.002590  0.001456  0.001684     1.779
   2.07826  1.00010 -0.00000  0.86269  0.020991  0.007675  0.000000     2.735
   2.08620  1.00803 -0.00037  0.85309  0.019642  0.008078  0.000000     2.431
   2.09537  1.01720 -0.00071  0.85581  0.017843  0.007968  0.000000     2.239
   2.10595  1.02778 -0.00106  0.86114  0.016056  0.007765  0.000000     2.068
   2.11818  1.04000 -0.00141  0.86863  0.014362  0.007501  0.000000     1.915
   2.13229  1.05410 -0.00176  0.87797  0.012821  0.007199  0.000000     1.781
   2.14859  1.07040 -0.00212  0.88856  0.011470  0.006884  0.000000     1.666
   2.16740  1.08921 -0.00246  0.89969  0.010319  0.006581  0.000000     1.568
   2.18913  1.11093 -0.00277  0.91072  0.009358  0.006304  0.000000     1.484
   2.21421  1.13601 -0.00305  0.92120  0.008563  0.006060  0.000000     1.413
   2.24317  1.16497 -0.00327  0.93089  0.007905  0.005850  0.000000     1.351
   2.27660  1.19840 -0.00341  0.93969  0.007358  0.005670  0.000000     1.298
   2.31521  1.23701 -0.00343  0.94762  0.006902  0.005516  0.000000     1.251
   2.35978  1.28158 -0.00328  0.95472  0.006520  0.005384  0.000000     1.211
   2.41125  1.33305 -0.00293  0.96106  0.006200  0.005272  0.000000     1.176
   2.47067  1.39246 -0.00231  0.96668  0.005932  0.005175  0.000000     1.146
   2.53928  1.46107 -0.00135  0.97166  0.005708  0.005093  0.000000     1.121
   2.61849  1.54027  0.00006  0.97604  0.005522  0.005022  0.000000     1.100
   2.70995  1.63171  0.00201  0.97986  0.005369  0.004962  0.000000     1.082
   2.81555  1.73728  0.00464  0.98318  0.005243  0.004910  0.000000     1.068
   2.93748  1.85915  0.00809  0.98603  0.005140  0.004867  0.000000     1.056
   3.07826  1.99986  0.01256  0.98870  0.005053  0.004827  0.000000     1.047
